N , J(N)
0 , -0.00107628
0.1 , -0.00113026
0.2 , -0.00106495
0.3 , -0.000937079
0.4 , -0.00077059
0.5 , -0.000578025
0.6 , -0.000367183
0.7 , -0.000143628
0.8 , 8.82407e-05
0.9 , 0.000324684
1 , 0.000562389
1.1 , 0.000798351
1.2 , 0.00102982
1.3 , 0.00125431
1.4 , 0.00146955
1.5 , 0.00167354
1.6 , 0.00186457
1.7 , 0.00204116
1.8 , 0.00220217
1.9 , 0.00234671
2 , 0.0024742
2.1 , 0.00258433
2.2 , 0.00267708
2.3 , 0.00275265
2.4 , 0.0028115
2.5 , 0.00285428
2.6 , 0.00288182
2.7 , 0.0028951
2.8 , 0.00289521
2.9 , 0.00288331
3 , 0.00286064
3.1 , 0.00282842
3.2 , 0.00278788
3.3 , 0.00274022
3.4 , 0.00268655
3.5 , 0.00262792
3.6 , 0.00256528
3.7 , 0.00249947
3.8 , 0.00243118
3.9 , 0.00236102
4 , 0.00228944
4.1 , 0.00221678
4.2 , 0.00214325
4.3 , 0.00206897
4.4 , 0.00199392
4.5 , 0.00191805
4.6 , 0.00184118
4.7 , 0.00176311
4.8 , 0.00168357
4.9 , 0.00160229
5 , 0.00151898
5.1 , 0.00143333
5.2 , 0.00134509
5.3 , 0.00125401
5.4 , 0.00115989
5.5 , 0.00106258
5.6 , 0.000962011
5.7 , 0.000858149
5.8 , 0.000751047
5.9 , 0.000640828
6 , 0.00052769
6.1 , 0.000411902
6.2 , 0.000293803
6.3 , 0.000173803
6.4 , 5.2371e-05
6.5 , -6.9965e-05
6.6 , -0.000192626
6.7 , -0.00031499
6.8 , -0.000436394
6.9 , -0.000556148
7 , -0.000673536
7.1 , -0.000787823
7.2 , -0.000898266
7.3 , -0.00100411
7.4 , -0.00110461
7.5 , -0.00119901
7.6 , -0.00128657
7.7 , -0.00136655
7.8 , -0.00143822
7.9 , -0.00150086
8 , -0.00155376
8.1 , -0.00159621
8.2 , -0.00162751
8.3 , -0.00164694
8.4 , -0.00165379
8.5 , -0.00164732
8.6 , -0.00162677
8.7 , -0.00159134
8.8 , -0.00154018
8.9 , -0.00147235
9 , -0.00138687
9.1 , -0.0012826
9.2 , -0.00115828
9.3 , -0.00101248
9.4 , -0.000843541
9.5 , -0.00064951
9.6 , -0.000428094
9.7 , -0.000176546
9.8 , 0.000108457
9.9 , 0.000430986
10 , 0.000796084
10.1 , 0.00121009
10.2 , 0.00168107
10.3 , 0.00221949
10.4 , 0.00283913
10.5 , 0.00355852
10.6 , 0.00440321
10.7 , 0.00540936
10.8 , 0.0066299
10.9 , 0.00814548
11 , 0.0100852
11.1 , 0.0126695
11.2 , 0.0163077
11.3 , 0.0218556
11.4 , 0.0314512
11.5 , 0.0523526
11.6 , 0.13511
11.7 , -0.283648
11.8 , -0.0721311
11.9 , -0.0420694
12 , -0.0299555
12.1 , -0.0233509
12.2 , -0.019153
12.3 , -0.0162206
12.4 , -0.0140354
12.5 , -0.0123283
12.6 , -0.0109456
12.7 , -0.00979355
12.8 , -0.00881154
12.9 , -0.00795881
13 , -0.00720693
13.1 , -0.00653556
13.2 , -0.00592976
13.3 , -0.00537836
13.4 , -0.00487284
13.5 , -0.00440663
13.6 , -0.00397458
13.7 , -0.00357261
13.8 , -0.00319745
13.9 , -0.00284648
14 , -0.00251754
14.1 , -0.00220887
14.2 , -0.00191901
14.3 , -0.00164673
14.4 , -0.001391
14.5 , -0.00115093
14.6 , -0.00092578
14.7 , -0.000714876
14.8 , -0.000517639
14.9 , -0.000333553
15 , -0.000162147
15.1 , -2.99104e-06
15.2 , 0.000144313
15.3 , 0.000280142
15.4 , 0.000404854
15.5 , 0.000518792
15.6 , 0.000622294
15.7 , 0.000715688
15.8 , 0.000799302
15.9 , 0.000873459
16 , 0.000938484
16.1 , 0.000994704
16.2 , 0.00104245
16.3 , 0.00108204
16.4 , 0.00111382
16.5 , 0.00113813
16.6 , 0.00115531
16.7 , 0.00116569
16.8 , 0.00116963
16.9 , 0.00116747
17 , 0.00115958
17.1 , 0.00114629
17.2 , 0.00112797
17.3 , 0.00110496
17.4 , 0.00107763
17.5 , 0.00104632
17.6 , 0.00101138
17.7 , 0.000973158
17.8 , 0.000932002
17.9 , 0.000888246
18 , 0.000842226
18.1 , 0.000794266
18.2 , 0.000744688
18.3 , 0.000693803
18.4 , 0.000641916
18.5 , 0.000589319
18.6 , 0.000536299
18.7 , 0.000483128
18.8 , 0.000430071
18.9 , 0.000377377
19 , 0.000325288
19.1 , 0.000274028
19.2 , 0.000223813
19.3 , 0.000174842
19.4 , 0.000127302
19.5 , 8.13661e-05
19.6 , 3.71942e-05
19.7 , -5.0688e-06
19.8 , -4.52919e-05
19.9 , -8.33581e-05
20 , -0.000119164
20.1 , -0.000152622
20.2 , -0.000183655
20.3 , -0.000212203
20.4 , -0.000238217
20.5 , -0.000261661
20.6 , -0.000282514
20.7 , -0.000300764
20.8 , -0.000316414
20.9 , -0.000329478
21 , -0.000339979
21.1 , -0.000347951
21.2 , -0.000353441
21.3 , -0.000356503
21.4 , -0.000357199
21.5 , -0.000355601
21.6 , -0.000351789
21.7 , -0.000345848
21.8 , -0.000337873
21.9 , -0.000327961
22 , -0.000316217
22.1 , -0.00030275
22.2 , -0.000287673
22.3 , -0.000271101
22.4 , -0.000253155
22.5 , -0.000233955
22.6 , -0.000213624
22.7 , -0.000192286
22.8 , -0.000170066
22.9 , -0.000147089
23 , -0.000123478
23.1 , -9.93568e-05
23.2 , -7.48459e-05
23.3 , -5.0065e-05
23.4 , -2.5131e-05
23.5 , -1.58047e-07
23.6 , 2.47431e-05
23.7 , 4.94653e-05
23.8 , 7.39052e-05
23.9 , 9.79637e-05
24 , 0.000121546
24.1 , 0.000144563
24.2 , 0.00016693
24.3 , 0.000188566
24.4 , 0.000209398
24.5 , 0.000229358
24.6 , 0.000248381
24.7 , 0.00026641
24.8 , 0.000283394
24.9 , 0.000299286
25 , 0.000314047
25.1 , 0.000327642
25.2 , 0.000340042
25.3 , 0.000351224
25.4 , 0.000361171
25.5 , 0.000369871
25.6 , 0.000377316
25.7 , 0.000383506
25.8 , 0.000388443
25.9 , 0.000392137
26 , 0.0003946
26.1 , 0.000395849
26.2 , 0.000395907
26.3 , 0.000394799
26.4 , 0.000392555
26.5 , 0.000389207
26.6 , 0.000384792
26.7 , 0.00037935
26.8 , 0.000372922
26.9 , 0.000365553
27 , 0.000357291
27.1 , 0.000348184
27.2 , 0.000338283
27.3 , 0.00032764
27.4 , 0.000316309
27.5 , 0.000304344
27.6 , 0.000291799
27.7 , 0.000278732
27.8 , 0.000265197
27.9 , 0.000251251
28 , 0.000236949
28.1 , 0.000222346
28.2 , 0.000207498
28.3 , 0.000192457
28.4 , 0.000177277
28.5 , 0.00016201
28.6 , 0.000146706
28.7 , 0.000131414
28.8 , 0.000116181
28.9 , 0.000101053
29 , 8.60732e-05
29.1 , 7.12837e-05
29.2 , 5.67242e-05
29.3 , 4.24322e-05
29.4 , 2.84431e-05
29.5 , 1.47899e-05
29.6 , 1.50353e-06
29.7 , -1.13877e-05
29.8 , -2.38576e-05
29.9 , -3.58825e-05
30 , -4.74412e-05
30.1 , -5.85147e-05
30.2 , -6.90865e-05
30.3 , -7.91424e-05
30.4 , -8.86706e-05
30.5 , -9.76613e-05
30.6 , -0.000106107
30.7 , -0.000114003
30.8 , -0.000121346
30.9 , -0.000128135
31 , -0.000134371
31.1 , -0.000140056
31.2 , -0.000145196
31.3 , -0.000149796
31.4 , -0.000153865
31.5 , -0.000157411
31.6 , -0.000160447
31.7 , -0.000162984
31.8 , -0.000165035
31.9 , -0.000166616
32 , -0.000167742
32.1 , -0.00016843
32.2 , -0.000168696
32.3 , -0.00016856
32.4 , -0.00016804
32.5 , -0.000167155
32.6 , -0.000165925
32.7 , -0.00016437
32.8 , -0.00016251
32.9 , -0.000160367
33 , -0.000157959
33.1 , -0.000155309
33.2 , -0.000152436
33.3 , -0.00014936
33.4 , -0.000146101
33.5 , -0.00014268
33.6 , -0.000139115
33.7 , -0.000135425
33.8 , -0.000131629
33.9 , -0.000127744
34 , -0.000123788
34.1 , -0.000119776
34.2 , -0.000115726
34.3 , -0.000111651
34.4 , -0.000107567
34.5 , -0.000103487
34.6 , -9.94241e-05
34.7 , -9.53902e-05
34.8 , -9.13966e-05
34.9 , -8.74537e-05
35 , -8.35712e-05
35.1 , -7.97578e-05
35.2 , -7.60214e-05
35.3 , -7.23692e-05
35.4 , -6.88076e-05
35.5 , -6.53421e-05
35.6 , -6.19774e-05
35.7 , -5.87175e-05
35.8 , -5.55657e-05
35.9 , -5.25246e-05
36 , -4.9596e-05
36.1 , -4.67811e-05
36.2 , -4.40805e-05
36.3 , -4.14942e-05
36.4 , -3.90215e-05
36.5 , -3.66613e-05
36.6 , -3.4412e-05
36.7 , -3.22714e-05
36.8 , -3.02371e-05
36.9 , -2.8306e-05
37 , -2.64749e-05
37.1 , -2.47403e-05
37.2 , -2.30981e-05
37.3 , -2.15442e-05
37.4 , -2.00744e-05
37.5 , -1.86839e-05
37.6 , -1.73682e-05
37.7 , -1.61224e-05
37.8 , -1.49416e-05
37.9 , -1.3821e-05
38 , -1.27555e-05
38.1 , -1.17402e-05
38.2 , -1.07702e-05
38.3 , -9.84069e-06
38.4 , -8.9469e-06
38.5 , -8.08419e-06
38.6 , -7.24806e-06
38.7 , -6.43415e-06
38.8 , -5.6383e-06
38.9 , -4.8565e-06
39 , -4.08498e-06
39.1 , -3.32018e-06
39.2 , -2.55875e-06
39.3 , -1.79762e-06
39.4 , -1.03392e-06
39.5 , -2.65082e-07
39.6 , 5.11234e-07
39.7 , 1.29709e-06
39.8 , 2.09427e-06
39.9 , 2.90431e-06
40 , 3.72846e-06
40.1 , 4.56772e-06
40.2 , 5.42282e-06
40.3 , 6.29422e-06
40.4 , 7.18215e-06
40.5 , 8.08657e-06
40.6 , 9.00721e-06
40.7 , 9.94359e-06
40.8 , 1.0895e-05
40.9 , 1.18605e-05
41 , 1.28389e-05
41.1 , 1.3829e-05
41.2 , 1.48292e-05
41.3 , 1.58379e-05
41.4 , 1.68533e-05
41.5 , 1.78735e-05
41.6 , 1.88963e-05
41.7 , 1.99197e-05
41.8 , 2.09414e-05
41.9 , 2.1959e-05
42 , 2.297e-05
42.1 , 2.39722e-05
42.2 , 2.49629e-05
42.3 , 2.59396e-05
42.4 , 2.68998e-05
42.5 , 2.7841e-05
42.6 , 2.87606e-05
42.7 , 2.96561e-05
42.8 , 3.05252e-05
42.9 , 3.13653e-05
43 , 3.21743e-05
43.1 , 3.29497e-05
43.2 , 3.36894e-05
43.3 , 3.43913e-05
43.4 , 3.50535e-05
43.5 , 3.56739e-05
43.6 , 3.6251e-05
43.7 , 3.67829e-05
43.8 , 3.72683e-05
43.9 , 3.77056e-05
44 , 3.80936e-05
44.1 , 3.84313e-05
44.2 , 3.87176e-05
44.3 , 3.89518e-05
44.4 , 3.91331e-05
44.5 , 3.9261e-05
44.6 , 3.93351e-05
44.7 , 3.93553e-05
44.8 , 3.93214e-05
44.9 , 3.92335e-05
45 , 3.90917e-05
45.1 , 3.88966e-05
45.2 , 3.86485e-05
45.3 , 3.83482e-05
45.4 , 3.79963e-05
45.5 , 3.75937e-05
45.6 , 3.71415e-05
45.7 , 3.66409e-05
45.8 , 3.6093e-05
45.9 , 3.54992e-05
46 , 3.4861e-05
46.1 , 3.418e-05
46.2 , 3.34577e-05
46.3 , 3.2696e-05
46.4 , 3.18966e-05
46.5 , 3.10614e-05
46.6 , 3.01923e-05
46.7 , 2.92914e-05
46.8 , 2.83606e-05
46.9 , 2.7402e-05
47 , 2.64178e-05
47.1 , 2.54102e-05
47.2 , 2.43811e-05
47.3 , 2.3333e-05
47.4 , 2.22678e-05
47.5 , 2.11878e-05
47.6 , 2.00953e-05
47.7 , 1.89923e-05
47.8 , 1.7881e-05
47.9 , 1.67635e-05
48 , 1.56419e-05
48.1 , 1.45183e-05
48.2 , 1.33948e-05
48.3 , 1.22732e-05
48.4 , 1.11555e-05
48.5 , 1.00437e-05
48.6 , 8.93943e-06
48.7 , 7.84458e-06
48.8 , 6.76083e-06
48.9 , 5.6898e-06
